2.000000000000000000e+02 7.530590158413530411e+00
2.010000000000000000e+02 7.490208101829027854e+00
2.020000000000000000e+02 7.453231649064817610e+00
2.030000000000000000e+02 7.419508057158257230e+00
2.040000000000000000e+02 7.388884137068480129e+00
2.050000000000000000e+02 7.361206853679023610e+00
2.060000000000000000e+02 7.336323973067780280e+00
2.070000000000000000e+02 7.314086961476830240e+00
2.080000000000000000e+02 7.294436441160309315e+00
2.090000000000000000e+02 7.277433029665401953e+00
2.100000000000000000e+02 7.263153941254334001e+00
2.110000000000000000e+02 7.251683154303285583e+00
2.120000000000000000e+02 7.243108954588841186e+00
2.130000000000000000e+02 7.237521514265288225e+00
2.140000000000000000e+02 7.235009908137357115e+00
2.150000000000000000e+02 7.235362025850804457e+00
2.160000000000000000e+02 7.238112443347619163e+00
2.170000000000000000e+02 7.243193654016706340e+00
2.180000000000000000e+02 7.250556660290222055e+00
2.190000000000000000e+02 7.260153326320388345e+00
2.200000000000000000e+02 7.271936188325132555e+00
2.210000000000000000e+02 7.285858274832171411e+00
2.220000000000000000e+02 7.301872935629099004e+00
2.230000000000000000e+02 7.319933678345484473e+00
2.240000000000000000e+02 7.339994011712272837e+00
2.250000000000000000e+02 7.362007294664730139e+00
2.260000000000000000e+02 7.385926590573115291e+00
2.270000000000000000e+02 7.411704517488964861e+00
2.280000000000000000e+02 7.439292111297511667e+00
2.290000000000000000e+02 7.468637878185428569e+00
2.300000000000000000e+02 7.499689569994536953e+00
2.310000000000000000e+02 7.532394687436637426e+00
2.320000000000000000e+02 7.566702594597112252e+00
2.330000000000000000e+02 7.602562681290600644e+00
2.340000000000000000e+02 7.639922939408825719e+00
2.350000000000000000e+02 7.678729821736054895e+00
2.360000000000000000e+02 7.718928111607821663e+00
2.370000000000000000e+02 7.760460797100899200e+00
2.380000000000000000e+02 7.803268943007628522e+00
2.390000000000000000e+02 7.847289371989750073e+00
2.400000000000000000e+02 7.892452214212913653e+00
2.410000000000000000e+02 7.938688014160150352e+00
2.420000000000000000e+02 7.985931488130574962e+00
2.430000000000000000e+02 8.034116256430795744e+00
2.440000000000000000e+02 8.083173545536812554e+00
2.450000000000000000e+02 8.133032108399833149e+00
2.460000000000000000e+02 8.183618155705527641e+00
2.470000000000000000e+02 8.234855299167421094e+00
2.480000000000000000e+02 8.286664507975896043e+00
2.490000000000000000e+02 8.338964057161811994e+00
2.500000000000000000e+02 8.391669393765438301e+00
2.510000000000000000e+02 8.444693428577920713e+00
2.520000000000000000e+02 8.497946732326109753e+00
2.530000000000000000e+02 8.551337588562736514e+00
2.540000000000000000e+02 8.604772063054751285e+00
2.550000000000000000e+02 8.658154091829018739e+00
2.560000000000000000e+02 8.711385588566148641e+00
2.570000000000000000e+02 8.764366571928942307e+00
2.580000000000000000e+02 8.816995313289567093e+00
2.590000000000000000e+02 8.869168505179009898e+00
2.600000000000000000e+02 8.920781450624367892e+00
2.610000000000000000e+02 8.971728273366716522e+00
2.620000000000000000e+02 9.021902148759004092e+00
2.630000000000000000e+02 9.071195554942043771e+00
2.640000000000000000e+02 9.119500543677823146e+00
2.650000000000000000e+02 9.166709029990645519e+00
2.660000000000000000e+02 9.212712903294720590e+00
2.670000000000000000e+02 9.257402922778668497e+00
2.680000000000000000e+02 9.300669424203961810e+00
2.690000000000000000e+02 9.342403241679367198e+00
2.700000000000000000e+02 9.382496109575644283e+00
2.710000000000000000e+02 9.420842239511252103e+00
2.720000000000000000e+02 9.457341355127219629e+00
2.730000000000000000e+02 9.491896925410642893e+00
2.740000000000000000e+02 9.524415998194841748e+00
2.750000000000000000e+02 9.554809563064093680e+00
2.760000000000000000e+02 9.582992493359414610e+00
2.770000000000000000e+02 9.608880150897354255e+00
2.780000000000000000e+02 9.632389920113196169e+00
2.790000000000000000e+02 9.653443638011836470e+00
2.800000000000000000e+02 9.671968019393982985e+00
2.810000000000000000e+02 9.687895236395235088e+00
2.820000000000000000e+02 9.701165545514914612e+00
2.830000000000000000e+02 9.711727063736748988e+00
2.840000000000000000e+02 9.719534516167479765e+00
2.850000000000000000e+02 9.724549415136053199e+00
2.860000000000000000e+02 9.726740232552257837e+00
2.870000000000000000e+02 9.726082534313887251e+00
2.880000000000000000e+02 9.722559075326337563e+00
2.890000000000000000e+02 9.716159854112639493e+00
2.900000000000000000e+02 9.706882032556931605e+00
2.910000000000000000e+02 9.694728791120059697e+00
2.920000000000000000e+02 9.679709618441400210e+00
2.930000000000000000e+02 9.661841044959011526e+00
2.940000000000000000e+02 9.641146548402282690e+00
2.950000000000000000e+02 9.617656404079111709e+00
2.960000000000000000e+02 9.591407498070632087e+00
2.970000000000000000e+02 9.562443110602680818e+00
2.980000000000000000e+02 9.530813190369322285e+00
2.990000000000000000e+02 9.496574490244338307e+00
3.000000000000000000e+02 9.459789334873020650e+00
3.010000000000000000e+02 9.419454800326757749e+00
3.020000000000000000e+02 9.375558829938796634e+00
3.030000000000000000e+02 9.328426065086901531e+00
3.040000000000000000e+02 9.278377680639259495e+00
3.050000000000000000e+02 9.225728321021446021e+00
3.060000000000000000e+02 9.170783295107204580e+00
3.070000000000000000e+02 9.113835891555341462e+00
3.080000000000000000e+02 9.055165114983907415e+00
3.090000000000000000e+02 8.995033805434605512e+00
3.100000000000000000e+02 8.933687099029047118e+00
3.110000000000000000e+02 8.871321176099852934e+00
3.120000000000000000e+02 8.807999995566969886e+00
3.130000000000000000e+02 8.743758481580734099e+00
3.140000000000000000e+02 8.678634538011042565e+00
3.150000000000000000e+02 8.612669121405302164e+00
3.160000000000000000e+02 8.545906271410508737e+00
3.170000000000000000e+02 8.478393098776052739e+00
3.180000000000000000e+02 8.410179731660573310e+00
3.190000000000000000e+02 8.341319221553442631e+00
3.200000000000000000e+02 8.271867410681673860e+00
3.210000000000000000e+02 8.201887549783497988e+00
3.220000000000000000e+02 8.131462557369589561e+00
3.230000000000000000e+02 8.060677168168133733e+00
3.240000000000000000e+02 7.989612572042377181e+00
3.250000000000000000e+02 7.918346345458466828e+00
3.260000000000000000e+02 7.846952407609075308e+00
3.270000000000000000e+02 7.775500999281810266e+00
3.280000000000000000e+02 7.704058682543513115e+00
3.290000000000000000e+02 7.632688359321956995e+00
3.300000000000000000e+02 7.561449306995918107e+00
3.310000000000000000e+02 7.490397305254916205e+00
3.320000000000000000e+02 7.419585246283063817e+00
3.330000000000000000e+02 7.349062716317613209e+00
3.340000000000000000e+02 7.278875688434120583e+00
3.350000000000000000e+02 7.209066264391142731e+00
3.360000000000000000e+02 7.139671394327884002e+00
3.370000000000000000e+02 7.070725030584908311e+00
3.380000000000000000e+02 7.002259069640917488e+00
3.390000000000000000e+02 6.934303406704464656e+00
3.400000000000000000e+02 6.866885991070269313e+00
3.410000000000000000e+02 6.800032896979484320e+00
3.420000000000000000e+02 6.733768518912315315e+00
3.430000000000000000e+02 6.668115486323780594e+00
3.440000000000000000e+02 6.603094581283949438e+00
3.450000000000000000e+02 6.538724806498845687e+00
3.460000000000000000e+02 6.475023456132785959e+00
3.470000000000000000e+02 6.412006186136620656e+00
3.480000000000000000e+02 6.349687077744727404e+00
3.490000000000000000e+02 6.288078718810114154e+00
3.500000000000000000e+02 6.227192291314857187e+00
3.510000000000000000e+02 6.167037608828056960e+00
3.520000000000000000e+02 6.107623051135450787e+00
3.530000000000000000e+02 6.048955643702092821e+00
3.540000000000000000e+02 5.991041149403463884e+00
3.550000000000000000e+02 5.933884140880665292e+00
3.560000000000000000e+02 5.877488070654180774e+00
3.570000000000000000e+02 5.821855338916316569e+00
3.580000000000000000e+02 5.766987358948372666e+00
3.590000000000000000e+02 5.712884620121987389e+00
3.600000000000000000e+02 5.659546748463958110e+00
3.610000000000000000e+02 5.606972564776731893e+00
3.620000000000000000e+02 5.499200535094693976e+00
3.630000000000000000e+02 5.259758533051450691e+00
3.640000000000000000e+02 4.917392427095294671e+00
3.650000000000000000e+02 4.501200888987944460e+00
3.660000000000000000e+02 4.039085064486136467e+00
3.670000000000000000e+02 3.557496005618483004e+00
3.680000000000000000e+02 3.081298436711520594e+00
3.690000000000000000e+02 2.633752112927592481e+00
3.700000000000000000e+02 2.236600397592491962e+00
3.710000000000000000e+02 1.907720699451212809e+00
3.720000000000000000e+02 1.645603959312730735e+00
3.730000000000000000e+02 1.440741223570711771e+00
3.740000000000000000e+02 1.284125298886302113e+00
3.750000000000000000e+02 1.167227513074921008e+00
3.760000000000000000e+02 1.081943413063400472e+00
3.770000000000000000e+02 1.020547122624894554e+00
3.780000000000000000e+02 9.756535277176028309e-01
3.790000000000000000e+02 9.401871656781677355e-01
3.800000000000000000e+02 9.073565546551839445e-01
3.810000000000000000e+02 8.715379692122634525e-01
3.820000000000000000e+02 8.321682029135196723e-01
3.830000000000000000e+02 7.903179091235226217e-01
3.840000000000000000e+02 7.470155273741790891e-01
3.850000000000000000e+02 7.032491339983952816e-01
3.860000000000000000e+02 6.599696781446514615e-01
3.870000000000000000e+02 6.180942767477531907e-01
3.880000000000000000e+02 5.785094982179640466e-01
3.890000000000000000e+02 5.420745678792955324e-01
3.900000000000000000e+02 5.096244322998622067e-01
3.910000000000000000e+02 4.819705662046870898e-01
3.920000000000000000e+02 4.594729691775861768e-01
3.930000000000000000e+02 4.415278941272688384e-01
3.940000000000000000e+02 4.274236666811656038e-01
3.950000000000000000e+02 4.164710379153417907e-01
3.960000000000000000e+02 4.080012208045442623e-01
3.970000000000000000e+02 4.013640950768295190e-01
3.980000000000000000e+02 3.959265593220334667e-01
3.990000000000000000e+02 3.910710102112091580e-01
4.000000000000000000e+02 3.861939297143936467e-01
4.010000000000000000e+02 3.807120861175029569e-01
4.020000000000000000e+02 3.743448402216462134e-01
4.030000000000000000e+02 3.671928416041221332e-01
4.040000000000000000e+02 3.593791978358598649e-01
4.050000000000000000e+02 3.510242180237025389e-01
4.060000000000000000e+02 3.422456854915715274e-01
4.070000000000000000e+02 3.331591067801419892e-01
4.080000000000000000e+02 3.238779211460376395e-01
4.090000000000000000e+02 3.145137103893020369e-01
4.100000000000000000e+02 3.051763950182112550e-01
4.110000000000000000e+02 2.959744154898940605e-01
4.120000000000000000e+02 2.870116990796695022e-01
4.130000000000000000e+02 2.783581256332005038e-01
4.140000000000000000e+02 2.700636342640758136e-01
4.150000000000000000e+02 2.621776496601687656e-01
4.160000000000000000e+02 2.547493819221879341e-01
4.170000000000000000e+02 2.478278693086705953e-01
4.180000000000000000e+02 2.414620169339362910e-01
4.190000000000000000e+02 2.357006316989505856e-01
4.200000000000000000e+02 2.305924537170218058e-01
4.210000000000000000e+02 2.261792684648599727e-01
4.220000000000000000e+02 2.223996520627812001e-01
4.230000000000000000e+02 2.191137727953263448e-01
4.240000000000000000e+02 2.161812276547778189e-01
4.250000000000000000e+02 2.134629568235479891e-01
4.260000000000000000e+02 2.108211148736838514e-01
4.270000000000000000e+02 2.081189522857266883e-01
4.280000000000000000e+02 2.052207072527272302e-01
4.290000000000000000e+02 2.019915077004733883e-01
4.300000000000000000e+02 1.982972834244600413e-01
4.310000000000000000e+02 1.940046882170974596e-01
4.320000000000000000e+02 1.889810318306309189e-01
4.330000000000000000e+02 1.830942216023312419e-01
4.340000000000000000e+02 1.762806981505505299e-01
4.350000000000000000e+02 1.687486445642710498e-01
4.360000000000000000e+02 1.607728402597830286e-01
4.370000000000000000e+02 1.526266207323070112e-01
4.380000000000000000e+02 1.445819995817038961e-01
4.390000000000000000e+02 1.369097865831966354e-01
4.400000000000000000e+02 1.298797061056279900e-01
4.410000000000000000e+02 1.237605186769950572e-01
4.420000000000000000e+02 1.187702965778900388e-01
4.430000000000000000e+02 1.148572007785633314e-01
4.440000000000000000e+02 1.118793253486554257e-01
4.450000000000000000e+02 1.096954731998894955e-01
4.460000000000000000e+02 1.081651460438754070e-01
4.470000000000000000e+02 1.071484698148870707e-01
4.480000000000000000e+02 1.065061242485274839e-01
4.490000000000000000e+02 1.060992768273662096e-01
4.500000000000000000e+02 1.057901614403516793e-01
4.510000000000000000e+02 1.054908817960017869e-01
4.520000000000000000e+02 1.051976171657022785e-01
4.530000000000000000e+02 1.049146796436652845e-01
4.540000000000000000e+02 1.046463781451062308e-01
4.550000000000000000e+02 1.043970196606104350e-01
4.560000000000000000e+02 1.041709104063895108e-01
4.570000000000000000e+02 1.039723568745098692e-01
4.580000000000000000e+02 1.038056667884543760e-01
4.590000000000000000e+02 1.036751499678396082e-01
4.600000000000000000e+02 1.035851191068587612e-01
4.610000000000000000e+02 1.035398904896897565e-01
4.620000000000000000e+02 1.035437846738478385e-01
4.630000000000000000e+02 1.036011269867591206e-01
4.640000000000000000e+02 1.037162479803398069e-01
4.650000000000000000e+02 1.038934838350035195e-01
4.660000000000000000e+02 1.041344511967025044e-01
4.670000000000000000e+02 1.044260353544825964e-01
4.680000000000000000e+02 1.047501777673833095e-01
4.690000000000000000e+02 1.050888316986911958e-01
4.700000000000000000e+02 1.054239624909429907e-01
4.710000000000000000e+02 1.057375443709740737e-01
4.720000000000000000e+02 1.060115574462700411e-01
4.730000000000000000e+02 1.062279848918205455e-01
4.740000000000000000e+02 1.063688103179362965e-01
4.750000000000000000e+02 1.064160153033790052e-01
4.760000000000000000e+02 1.063515770792093640e-01
4.770000000000000000e+02 1.061574663496486909e-01
4.780000000000000000e+02 1.058156452370142692e-01
4.790000000000000000e+02 1.053080653373436593e-01
4.800000000000000000e+02 1.046166658752797768e-01
4.810000000000000000e+02 1.037233719461733705e-01
4.820000000000000000e+02 1.026100928342440766e-01
4.830000000000000000e+02 1.012635064428758086e-01
4.840000000000000000e+02 9.969616304239777016e-02
4.850000000000000000e+02 9.792932096607216697e-02
4.860000000000000000e+02 9.598424576670158692e-02
4.870000000000000000e+02 9.388220656889782745e-02
4.880000000000000000e+02 9.164447876392189940e-02
4.890000000000000000e+02 8.929234647624946508e-02
4.900000000000000000e+02 8.684710483442831253e-02
4.910000000000000000e+02 8.433006205559996638e-02
4.920000000000000000e+02 8.176254135071021889e-02
4.930000000000000000e+02 7.916588266045586353e-02
4.940000000000000000e+02 7.656144423143101951e-02
4.950000000000000000e+02 7.397060404120824051e-02
4.960000000000000000e+02 7.141476108150510149e-02
4.970000000000000000e+02 6.891533650614586892e-02
4.980000000000000000e+02 6.649377465315073343e-02
4.990000000000000000e+02 6.417154394601190526e-02
5.000000000000000000e+02 6.197013768255158622e-02
5.010000000000000000e+02 5.991103455787648302e-02
5.020000000000000000e+02 5.800722126207565749e-02
5.030000000000000000e+02 5.625269377047490554e-02
5.040000000000000000e+02 5.463887636027569411e-02
5.050000000000000000e+02 5.315719108982896318e-02
5.060000000000000000e+02 5.179905697688767796e-02
5.070000000000000000e+02 5.055588924643534404e-02
5.080000000000000000e+02 4.941909864568980876e-02
5.090000000000000000e+02 4.838009082351415330e-02
5.100000000000000000e+02 4.743026576383344017e-02
5.110000000000000000e+02 4.656101728248869531e-02
5.120000000000000000e+02 4.576373259385706910e-02
5.130000000000000000e+02 4.502979192608014269e-02
5.140000000000000000e+02 4.435056818928458100e-02
5.150000000000000000e+02 4.371742669383443108e-02
5.160000000000000000e+02 4.312172491792876788e-02
5.170000000000000000e+02 4.255481232114093071e-02
5.180000000000000000e+02 4.200803020348977540e-02
5.190000000000000000e+02 4.147271160608743262e-02
5.200000000000000000e+02 4.094018125337338387e-02
5.210000000000000000e+02 4.040175553360512983e-02
5.220000000000000000e+02 3.984875647830205675e-02
5.230000000000000000e+02 3.927545842683391464e-02
5.240000000000000000e+02 3.868273764072421850e-02
5.250000000000000000e+02 3.807236618766966785e-02
5.260000000000000000e+02 3.744611862981294531e-02
5.270000000000000000e+02 3.680577200243113911e-02
5.280000000000000000e+02 3.615310578756203430e-02
5.290000000000000000e+02 3.548990188241961385e-02
5.300000000000000000e+02 3.481794456343440675e-02
5.310000000000000000e+02 3.413902044566276966e-02
5.320000000000000000e+02 3.345491843841783691e-02
5.330000000000000000e+02 3.276742969689716567e-02
5.340000000000000000e+02 3.207834757080767901e-02
5.350000000000000000e+02 3.138946754914843928e-02
5.360000000000000000e+02 3.070258720254684381e-02
5.370000000000000000e+02 3.001950612251003472e-02
5.380000000000000000e+02 2.934202585825398252e-02
5.390000000000000000e+02 2.867194985178845787e-02
5.400000000000000000e+02 2.801108337002404525e-02
5.410000000000000000e+02 2.736118344064940311e-02
5.420000000000000000e+02 2.672285859101052735e-02
5.430000000000000000e+02 2.609556751810646405e-02
5.440000000000000000e+02 2.547871842301457218e-02
5.450000000000000000e+02 2.487171899436959807e-02
5.460000000000000000e+02 2.427397640959791381e-02
5.470000000000000000e+02 2.368489735449762212e-02
5.480000000000000000e+02 2.310388809519588887e-02
5.490000000000000000e+02 2.253035441989657828e-02
5.500000000000000000e+02 2.196370161591349596e-02
5.510000000000000000e+02 2.140333447615143381e-02
5.520000000000000000e+02 2.084865730650626442e-02
5.530000000000000000e+02 2.029907393360410803e-02
5.540000000000000000e+02 1.975398771373670578e-02
5.550000000000000000e+02 1.921280154248232799e-02
5.560000000000000000e+02 1.867491786448357421e-02
5.570000000000000000e+02 1.813973868407436560e-02
5.580000000000000000e+02 1.760666557612648037e-02
5.590000000000000000e+02 1.707509969756758686e-02
5.600000000000000000e+02 1.654444179868455947e-02
5.610000000000000000e+02 1.601409223525818507e-02
5.620000000000000000e+02 1.548345098037887460e-02
5.630000000000000000e+02 1.495191763695599869e-02
5.640000000000000000e+02 1.441889144968544652e-02
5.650000000000000000e+02 1.388377131745368968e-02
5.660000000000000000e+02 1.334595580570936170e-02
5.670000000000000000e+02 1.280484315854180100e-02
5.680000000000000000e+02 1.225983131091743297e-02
5.690000000000000000e+02 1.171031790078901763e-02
5.700000000000000000e+02 1.115570028071486905e-02
5.710000000000000000e+02 1.059537552939559743e-02
5.720000000000000000e+02 1.002874046340511589e-02
5.730000000000000000e+02 9.455242519630122772e-03
5.740000000000000000e+02 8.875499110436797096e-03
5.750000000000000000e+02 8.291298306608759980e-03
5.760000000000000000e+02 7.704479903242753350e-03
5.770000000000000000e+02 7.116884498241496208e-03
5.780000000000000000e+02 6.530353110626528797e-03
5.790000000000000000e+02 5.946726495630813569e-03
5.800000000000000000e+02 5.367846585651169823e-03
5.810000000000000000e+02 4.795557545770099024e-03
5.820000000000000000e+02 4.231704372440656635e-03
5.830000000000000000e+02 3.678132361885169156e-03
5.840000000000000000e+02 3.136687055616386912e-03
5.850000000000000000e+02 2.609214193948957480e-03
5.860000000000000000e+02 2.097559673823958144e-03
5.870000000000000000e+02 1.603569513732458918e-03
5.880000000000000000e+02 1.129089819822284716e-03
5.890000000000000000e+02 6.759666764418798988e-04
5.900000000000000000e+02 2.460464470749557054e-04
5.910000000000000000e+02 -1.588207315071418074e-04
5.920000000000000000e+02 -5.366579466897787153e-04
5.930000000000000000e+02 -8.853235348626182057e-04
5.940000000000000000e+02 -1.202664386788877176e-03
5.950000000000000000e+02 -1.486527055220125638e-03
5.960000000000000000e+02 -1.734757893127371721e-03
5.970000000000000000e+02 -1.945203200524355533e-03
5.980000000000000000e+02 -2.115709380052521044e-03
5.990000000000000000e+02 -2.244123099888323085e-03
6.000000000000000000e+02 -2.328291465638925983e-03
6.010000000000000000e+02 -2.366062199084978477e-03
6.020000000000000000e+02 -2.355283825611369751e-03
6.030000000000000000e+02 -2.293805867964856995e-03
6.040000000000000000e+02 -2.179479048454874886e-03
6.050000000000000000e+02 -2.010155497336193944e-03
6.060000000000000000e+02 -1.783688968869916007e-03
6.070000000000000000e+02 -1.497935063398777482e-03
6.080000000000000000e+02 -1.150751456691824970e-03
6.090000000000000000e+02 -7.399981351664282466e-04
6.100000000000000000e+02 -2.635376377001386744e-04
6.110000000000000000e+02 2.806293483384732592e-04
6.120000000000000000e+02 8.913862631656626354e-04
6.130000000000000000e+02 1.564501450148445471e-03
6.140000000000000000e+02 2.295606479929786399e-03
6.150000000000000000e+02 3.080331879353912124e-03
6.160000000000000000e+02 3.914307488489433481e-03
6.170000000000000000e+02 4.793162801627727856e-03
6.180000000000000000e+02 5.712527292120355912e-03
6.190000000000000000e+02 6.668030720921088589e-03
6.200000000000000000e+02 7.655303428821124898e-03
6.210000000000000000e+02 8.669976613263886966e-03
6.220000000000000000e+02 9.707682591832664937e-03
6.230000000000000000e+02 1.076405504475541446e-02
6.240000000000000000e+02 1.183472924162199715e-02
6.250000000000000000e+02 1.291534225285498674e-02
6.260000000000000000e+02 1.400153314499405326e-02
6.270000000000000000e+02 1.508894316001736444e-02
6.280000000000000000e+02 1.617321587888208290e-02
6.290000000000000000e+02 1.724999736914920728e-02
6.300000000000000000e+02 1.831493631686035781e-02
6.310000000000000000e+02 1.936368414301654212e-02
6.320000000000000000e+02 2.039189510432205463e-02
6.330000000000000000e+02 2.139532061112804986e-02
6.340000000000000000e+02 2.237188199617274123e-02
6.350000000000000000e+02 2.332166881542204265e-02
6.360000000000000000e+02 2.424486501436821581e-02
6.370000000000000000e+02 2.514165469346909751e-02
6.380000000000000000e+02 2.601222211981816385e-02
6.390000000000000000e+02 2.685675173845100683e-02
6.400000000000000000e+02 2.767542818347716593e-02
6.410000000000000000e+02 2.846843628794977835e-02
6.420000000000000000e+02 2.923596109418315908e-02
6.430000000000000000e+02 2.997818786264834154e-02
6.440000000000000000e+02 3.069530208082917738e-02
6.450000000000000000e+02 3.138748933200265212e-02
6.460000000000000000e+02 3.205493506117871455e-02
6.470000000000000000e+02 3.269782485747748518e-02
6.480000000000000000e+02 3.331634451832757304e-02
6.490000000000000000e+02 3.391068006024839515e-02
6.500000000000000000e+02 3.448101772846850349e-02
6.510000000000000000e+02 3.502754400663952300e-02
6.520000000000000000e+02 3.555044562564897009e-02
6.530000000000000000e+02 3.604990957249298855e-02
6.540000000000000000e+02 3.652612309857433681e-02
6.550000000000000000e+02 3.697927372737074697e-02
6.560000000000000000e+02 3.740954926183379103e-02
6.570000000000000000e+02 3.781713788636822254e-02
6.580000000000000000e+02 3.820222897530718698e-02
6.590000000000000000e+02 3.856501274171910548e-02
6.600000000000000000e+02 3.890567977421535706e-02
6.610000000000000000e+02 3.922442103135073688e-02
6.620000000000000000e+02 3.952142784335692383e-02
6.630000000000000000e+02 3.979689190383787351e-02
6.640000000000000000e+02 4.005100526350517665e-02
6.650000000000000000e+02 4.028396032596491538e-02
6.660000000000000000e+02 4.049594984289753979e-02
6.670000000000000000e+02 4.068716690886117066e-02
6.680000000000000000e+02 4.085780495508079674e-02
6.690000000000000000e+02 4.100805746226244414e-02
6.700000000000000000e+02 4.113811756158305966e-02
6.710000000000000000e+02 4.124817858835835155e-02
6.720000000000000000e+02 4.133843417568853346e-02
6.730000000000000000e+02 4.140907825268173859e-02
6.740000000000000000e+02 4.146030504250133170e-02
6.750000000000000000e+02 4.149231942860165390e-02
6.760000000000000000e+02 4.150572952346820443e-02
6.770000000000000000e+02 4.150166652744846640e-02
6.780000000000000000e+02 4.148129571608045324e-02
6.790000000000000000e+02 4.144578134952568715e-02
6.800000000000000000e+02 4.139628659309525088e-02
6.810000000000000000e+02 4.133397344399845907e-02
6.820000000000000000e+02 4.126000266578584708e-02
6.830000000000000000e+02 4.117553372889241892e-02
6.840000000000000000e+02 4.108172475846506855e-02
6.850000000000000000e+02 4.097973248850159816e-02
6.860000000000000000e+02 4.087071222231369177e-02
6.870000000000000000e+02 4.075581779982779401e-02
6.880000000000000000e+02 4.063620157060461591e-02
6.890000000000000000e+02 4.051301437288452878e-02
6.900000000000000000e+02 4.038740551919109412e-02
6.910000000000000000e+02 4.026052278705794657e-02
6.920000000000000000e+02 4.013351241577057388e-02
6.930000000000000000e+02 4.000751910880811363e-02
6.940000000000000000e+02 3.988368604125945571e-02
6.950000000000000000e+02 3.976284124759573574e-02
6.960000000000000000e+02 3.964455761819760810e-02
6.970000000000000000e+02 3.952809527862560790e-02
6.980000000000000000e+02 3.941271541863664019e-02
6.990000000000000000e+02 3.929768028530386537e-02
7.000000000000000000e+02 3.918225317806740132e-02
7.010000000000000000e+02 3.906569845716687667e-02
7.020000000000000000e+02 3.894728156980306610e-02
7.030000000000000000e+02 3.882626903348876390e-02
7.040000000000000000e+02 3.870192843838819730e-02
7.050000000000000000e+02 3.857352846112403755e-02
7.060000000000000000e+02 3.844033888196023152e-02
7.070000000000000000e+02 3.830163060701525374e-02
7.080000000000000000e+02 3.815667574047492544e-02
7.090000000000000000e+02 3.800474761296582932e-02
7.100000000000000000e+02 3.784512075997989444e-02
7.110000000000000000e+02 3.767707095105223697e-02
7.120000000000000000e+02 3.749987522488498759e-02
7.130000000000000000e+02 3.731281192702844141e-02
7.140000000000000000e+02 3.711516074974045842e-02
7.150000000000000000e+02 3.690620277502557056e-02
7.160000000000000000e+02 3.668538120731179575e-02
7.170000000000000000e+02 3.645278295419019515e-02
7.180000000000000000e+02 3.620865565724405710e-02
7.190000000000000000e+02 3.595324686021603156e-02
7.200000000000000000e+02 3.568680399470898490e-02
7.210000000000000000e+02 3.540957436564466654e-02
7.220000000000000000e+02 3.512180513768206613e-02
7.230000000000000000e+02 3.482374332144958645e-02
7.240000000000000000e+02 3.451563576030085290e-02
7.250000000000000000e+02 3.419772911731146225e-02
7.260000000000000000e+02 3.387026986253796612e-02
7.270000000000000000e+02 3.353350426053955391e-02
7.280000000000000000e+02 3.318767835842598851e-02
7.290000000000000000e+02 3.283303797405885682e-02
7.300000000000000000e+02 3.246982868414231144e-02
7.310000000000000000e+02 3.209829581325687048e-02
7.320000000000000000e+02 3.171868442292616330e-02
7.330000000000000000e+02 3.133123930062592377e-02
7.340000000000000000e+02 3.093620494953918873e-02
7.350000000000000000e+02 3.053382557839702180e-02
7.360000000000000000e+02 3.012434509142545777e-02
7.370000000000000000e+02 2.970800707889475339e-02
7.380000000000000000e+02 2.928505480758610696e-02
7.390000000000000000e+02 2.885573121170492694e-02
7.400000000000000000e+02 2.842027888420736031e-02
7.410000000000000000e+02 2.797894006773149478e-02
7.420000000000000000e+02 2.753195664673640727e-02
7.430000000000000000e+02 2.707957013906709537e-02
7.440000000000000000e+02 2.662202168828331494e-02
7.450000000000000000e+02 2.615955205579887852e-02
7.460000000000000000e+02 2.569240161350588511e-02
7.470000000000000000e+02 2.522081033688416615e-02
7.480000000000000000e+02 2.474501779771719895e-02
7.490000000000000000e+02 2.426526315752329521e-02
7.500000000000000000e+02 2.378178516106848120e-02
7.510000000000000000e+02 2.329482212997050980e-02
7.520000000000000000e+02 2.280461195695996507e-02
7.530000000000000000e+02 2.231139209956213565e-02
7.540000000000000000e+02 2.181539957485681760e-02
7.550000000000000000e+02 2.131687095380001978e-02
7.560000000000000000e+02 2.081604235617647361e-02
7.570000000000000000e+02 2.031314944551176546e-02
7.580000000000000000e+02 1.980842742407687429e-02
7.590000000000000000e+02 1.930211102851939198e-02
7.600000000000000000e+02 1.879443452530514189e-02
7.610000000000000000e+02 1.828563170635877713e-02
7.620000000000000000e+02 1.777593588518236456e-02
7.630000000000000000e+02 1.726557989270008364e-02
7.640000000000000000e+02 1.675479607398140669e-02
7.650000000000000000e+02 1.624381628414893822e-02
7.660000000000000000e+02 1.573287188550941823e-02
7.670000000000000000e+02 1.522219374393292239e-02
7.680000000000000000e+02 1.471201222621736776e-02
7.690000000000000000e+02 1.420255719689928614e-02
7.700000000000000000e+02 1.369405801571025802e-02
7.710000000000000000e+02 1.318674353497011759e-02
7.720000000000000000e+02 1.268084209735377034e-02
7.730000000000000000e+02 1.217658153320807721e-02
7.740000000000000000e+02 1.167418915910613079e-02
7.750000000000000000e+02 1.117389177522739099e-02
7.760000000000000000e+02 1.067591566400615498e-02
7.770000000000000000e+02 1.018048658826673468e-02
7.780000000000000000e+02 9.687829789722619128e-03
7.790000000000000000e+02 9.198169987657673491e-03
7.800000000000000000e+02 8.711731377381112806e-03
7.810000000000000000e+02 8.228737629640863610e-03
7.820000000000000000e+02 7.749411888891674996e-03
7.830000000000000000e+02 7.273976773004666059e-03
7.840000000000000000e+02 6.802654372223622577e-03
7.850000000000000000e+02 6.335666248417344201e-03
7.860000000000000000e+02 5.873233434774411191e-03
7.870000000000000000e+02 5.415576435327179756e-03
7.880000000000000000e+02 4.962915224574786753e-03
7.890000000000000000e+02 4.515469247112656979e-03
7.900000000000000000e+02 4.073457417868515777e-03
7.910000000000000000e+02 3.637098121831191036e-03
7.920000000000000000e+02 3.206609214371386549e-03
7.930000000000000000e+02 2.782208021141996564e-03
7.940000000000000000e+02 2.364111338692695755e-03
7.950000000000000000e+02 1.952535434649143968e-03
7.960000000000000000e+02 1.547696048079971525e-03
7.970000000000000000e+02 1.149808390414942772e-03
7.980000000000000000e+02 7.590871456826799816e-04
7.990000000000000000e+02 3.757464715354134617e-04
8.000000000000000000e+02 0.000000000000000000e+00
8.010000000000000000e+02 -3.679856593459037025e-04
8.020000000000000000e+02 -7.282302125184594941e-04
8.030000000000000000e+02 -1.080799840129336668e-03
8.040000000000000000e+02 -1.425760649563550392e-03
8.050000000000000000e+02 -1.763178673554641543e-03
8.060000000000000000e+02 -2.093119869250524047e-03
8.070000000000000000e+02 -2.415650117015983797e-03
8.080000000000000000e+02 -2.730835219681096698e-03
8.090000000000000000e+02 -3.038740901308837304e-03
8.100000000000000000e+02 -3.339432806305760257e-03
8.110000000000000000e+02 -3.632976498177241213e-03
8.120000000000000000e+02 -3.919437459050552353e-03
8.130000000000000000e+02 -4.198881088097174315e-03
8.140000000000000000e+02 -4.471372701044294164e-03
8.150000000000000000e+02 -4.736977529170360163e-03
8.160000000000000000e+02 -4.995760718047605013e-03
8.170000000000000000e+02 -5.247787327122899366e-03
8.180000000000000000e+02 -5.493122328414173049e-03
8.190000000000000000e+02 -5.731830605896140809e-03
8.200000000000000000e+02 -5.963976954575903738e-03
8.210000000000000000e+02 -6.189626079418628947e-03
8.220000000000000000e+02 -6.408842594917923616e-03
8.230000000000000000e+02 -6.621691023825802304e-03
8.240000000000000000e+02 -6.828235796769447502e-03
8.250000000000000000e+02 -7.028541251003854982e-03
8.260000000000000000e+02 -7.222671630075125707e-03
8.270000000000000000e+02 -7.410691082584296673e-03
8.280000000000000000e+02 -7.592663661954937408e-03
8.290000000000000000e+02 -7.768653325208293818e-03
8.300000000000000000e+02 -7.938723932384633003e-03
8.310000000000000000e+02 -8.102939246011176683e-03
8.320000000000000000e+02 -8.261362930107747291e-03
8.330000000000000000e+02 -8.414058549631399722e-03
8.340000000000000000e+02 -8.561089569817284528e-03
8.350000000000000000e+02 -8.702519355473043935e-03
8.360000000000000000e+02 -8.838411170180337714e-03
8.370000000000000000e+02 -8.968828175959750112e-03
8.380000000000000000e+02 -9.093833432275133175e-03
8.390000000000000000e+02 -9.213489895709938565e-03
8.400000000000000000e+02 -9.327860419133344669e-03
8.410000000000000000e+02 -9.437007751179237597e-03
8.420000000000000000e+02 -9.540994535759883197e-03
8.430000000000000000e+02 -9.639883311265969729e-03
8.440000000000000000e+02 -9.733736510265583036e-03
8.450000000000000000e+02 -9.822616458761670305e-03
8.460000000000000000e+02 -9.906585375588253944e-03
8.470000000000000000e+02 -9.985705372108778788e-03
8.480000000000000000e+02 -1.006003845164673421e-02
8.490000000000000000e+02 -1.012964650862458772e-02
8.500000000000000000e+02 -1.019459132865684070e-02
8.510000000000000000e+02 -1.025493458748992330e-02
8.520000000000000000e+02 -1.031073785093146282e-02
8.530000000000000000e+02 -1.036206257350142518e-02
8.540000000000000000e+02 -1.040897009456188613e-02
8.550000000000000000e+02 -1.045152164053279875e-02
8.560000000000000000e+02 -1.048977832588691463e-02
8.570000000000000000e+02 -1.052380115292754839e-02
8.580000000000000000e+02 -1.055365101082954109e-02
8.590000000000000000e+02 -1.057938867583570371e-02
8.600000000000000000e+02 -1.060107481072867890e-02
8.610000000000000000e+02 -1.061876996427811408e-02
8.620000000000000000e+02 -1.063253457115479091e-02
8.630000000000000000e+02 -1.064242895132911683e-02
8.640000000000000000e+02 -1.064851330993667536e-02
8.650000000000000000e+02 -1.065084773681489703e-02
8.660000000000000000e+02 -1.064949220630810947e-02
8.670000000000000000e+02 -1.064450657682519848e-02
8.680000000000000000e+02 -1.063595059063052878e-02
8.690000000000000000e+02 -1.062388387352799883e-02
8.700000000000000000e+02 -1.060836593450859185e-02
8.710000000000000000e+02 -1.058945616567806905e-02
8.720000000000000000e+02 -1.056721384163154462e-02
8.730000000000000000e+02 -1.054169811949560304e-02
8.740000000000000000e+02 -1.051296803874604557e-02
8.750000000000000000e+02 -1.048108252050672026e-02
8.760000000000000000e+02 -1.044610036779845992e-02
8.770000000000000000e+02 -1.040808026496361366e-02
8.780000000000000000e+02 -1.036708077778242428e-02
8.790000000000000000e+02 -1.032316035289345194e-02
8.800000000000000000e+02 -1.027637731785916407e-02
8.810000000000000000e+02 -1.022678988084118473e-02
8.820000000000000000e+02 -1.017445613044993570e-02
8.830000000000000000e+02 -1.011943403547437524e-02
8.840000000000000000e+02 -1.006178144477438280e-02
8.850000000000000000e+02 -1.000155608713563724e-02
8.860000000000000000e+02 -9.938815571181232669e-03
8.870000000000000000e+02 -9.873617384962143223e-03
8.880000000000000000e+02 -9.806018895934551921e-03
8.890000000000000000e+02 -9.736077350899435476e-03
8.900000000000000000e+02 -9.663849875797859978e-03
8.910000000000000000e+02 -9.589393475550741022e-03
8.920000000000000000e+02 -9.512765033955001420e-03
8.930000000000000000e+02 -9.434021313600601116e-03
8.940000000000000000e+02 -9.353218955630928505e-03
8.950000000000000000e+02 -9.270414479901935290e-03
8.960000000000000000e+02 -9.185664285787443692e-03
8.970000000000000000e+02 -9.099024651564787194e-03
8.980000000000000000e+02 -9.010551733774182365e-03
8.990000000000000000e+02 -8.920301567020234856e-03
9.000000000000000000e+02 -8.828330063925957094e-03
9.010000000000000000e+02 -8.734693015107236613e-03
9.020000000000000000e+02 -8.639446088918617539e-03
9.030000000000000000e+02 -8.542644831777012129e-03
9.040000000000000000e+02 -8.444344667556421061e-03
9.050000000000000000e+02 -8.344600898035323816e-03
9.060000000000000000e+02 -8.243468702616546864e-03
9.070000000000000000e+02 -8.141003138268942257e-03
9.080000000000000000e+02 -8.037259139548500950e-03
9.090000000000000000e+02 -7.932291518699141966e-03
9.100000000000000000e+02 -7.826154965404792663e-03
9.110000000000000000e+02 -7.718904046822847205e-03
9.120000000000000000e+02 -7.610593207697149108e-03
9.130000000000000000e+02 -7.501276770217050159e-03
9.140000000000000000e+02 -7.391008934050887977e-03
9.150000000000000000e+02 -7.279843776482660539e-03
9.160000000000000000e+02 -7.167835252127527194e-03
9.170000000000000000e+02 -7.055037193226859106e-03
9.180000000000000000e+02 -6.941503309486177047e-03
9.190000000000000000e+02 -6.827287188326137263e-03
9.200000000000000000e+02 -6.712442294556450299e-03
9.210000000000000000e+02 -6.597021970582054619e-03
9.220000000000000000e+02 -6.481079436569264947e-03
9.230000000000000000e+02 -6.364667790404399984e-03
9.240000000000000000e+02 -6.247840007587879274e-03
9.250000000000000000e+02 -6.130648941386346307e-03
9.260000000000000000e+02 -6.013147322992194559e-03
9.270000000000000000e+02 -5.895387761439161919e-03
9.280000000000000000e+02 -5.777422743608541869e-03
9.290000000000000000e+02 -5.659304634529641054e-03
9.300000000000000000e+02 -5.541085677280468968e-03
9.310000000000000000e+02 -5.422817993002884696e-03
9.320000000000000000e+02 -5.304553581224026419e-03
9.330000000000000000e+02 -5.186344319537809257e-03
9.340000000000000000e+02 -5.068241964107714041e-03
9.350000000000000000e+02 -4.950298149565415286e-03
9.360000000000000000e+02 -4.832564389035702221e-03
9.370000000000000000e+02 -4.715092074419871028e-03
9.380000000000000000e+02 -4.597932476205870631e-03
9.390000000000000000e+02 -4.481136743848793472e-03
9.400000000000000000e+02 -4.364755905797976232e-03
9.410000000000000000e+02 -4.248840869470297231e-03
9.420000000000000000e+02 -4.133442421698273715e-03
9.430000000000000000e+02 -4.018611228355595776e-03
9.440000000000000000e+02 -3.904397834685480011e-03
9.450000000000000000e+02 -3.790852665852100390e-03
9.460000000000000000e+02 -3.678026026355899706e-03
9.470000000000000000e+02 -3.565968100585091127e-03
9.480000000000000000e+02 -3.454728952820148094e-03
9.490000000000000000e+02 -3.344358527545150759e-03
9.500000000000000000e+02 -3.234906649114896882e-03
9.510000000000000000e+02 -3.126423022523625028e-03
9.520000000000000000e+02 -3.018957233156168048e-03
9.530000000000000000e+02 -2.912558746966205023e-03
9.540000000000000000e+02 -2.807276910600055471e-03
9.550000000000000000e+02 -2.703160951719132347e-03
9.560000000000000000e+02 -2.600259979074966230e-03
9.570000000000000000e+02 -2.498622982481085025e-03
9.580000000000000000e+02 -2.398298833321378578e-03
9.590000000000000000e+02 -2.299336284339963815e-03
9.600000000000000000e+02 -2.201783970052001525e-03
9.610000000000000000e+02 -2.105690406894530128e-03
9.620000000000000000e+02 -2.011103993140886999e-03
9.630000000000000000e+02 -1.918073009472972060e-03
9.640000000000000000e+02 -1.826645618737054435e-03
9.650000000000000000e+02 -1.736869866502585222e-03
9.660000000000000000e+02 -1.648793680924993217e-03
9.670000000000000000e+02 -1.562464873012549141e-03
9.680000000000000000e+02 -1.477931136959063051e-03
9.690000000000000000e+02 -1.395240050191200436e-03
9.700000000000000000e+02 -1.314439073432732696e-03
9.710000000000000000e+02 -1.235575551161342735e-03
9.720000000000000000e+02 -1.158696711585964056e-03
9.730000000000000000e+02 -1.083849666774151311e-03
9.740000000000000000e+02 -1.011081413329998095e-03
9.750000000000000000e+02 -9.404388318887380548e-04
9.760000000000000000e+02 -8.719686878891518738e-04
9.770000000000000000e+02 -8.057176311620857685e-04
9.780000000000000000e+02 -7.417321968946707532e-04
9.790000000000000000e+02 -6.800588052887771625e-04
9.800000000000000000e+02 -6.207437618184378581e-04
9.810000000000000000e+02 -5.638332574676368581e-04
9.820000000000000000e+02 -5.093733692279194284e-04
9.830000000000000000e+02 -4.574100597620313151e-04
9.840000000000000000e+02 -4.079891780805347881e-04
9.850000000000000000e+02 -3.611564594450213713e-04
9.860000000000000000e+02 -3.169575257740896114e-04
9.870000000000000000e+02 -2.754378857983525949e-04
9.880000000000000000e+02 -2.366429350857090477e-04
9.890000000000000000e+02 -2.006179566185698610e-04
9.900000000000000000e+02 -1.674081206449838514e-04
9.910000000000000000e+02 -1.370584851060201203e-04
9.920000000000000000e+02 -1.096139958238555279e-04
9.930000000000000000e+02 -8.511948649883998858e-05
9.940000000000000000e+02 -6.361967938095156299e-05
9.950000000000000000e+02 -4.515918511653966352e-05
9.960000000000000000e+02 -2.978250301327632979e-05
9.970000000000000000e+02 -1.753402127249974123e-05
9.980000000000000000e+02 -8.458017371961917477e-06
9.990000000000000000e+02 -2.598658159636402266e-06
1.000000000000000000e+03 -1.221382127213125831e-14
1.001000000000000000e+03 2.443406325832035134e-14
1.002000000000000000e+03 1.222023524392186698e-14
1.003000000000000000e+03 0.000000000000000000e+00
1.004000000000000000e+03 -1.222662231432208947e-14
1.005000000000000000e+03 1.222980580374468544e-14
1.006000000000000000e+03 1.223298261846796246e-14
1.007000000000000000e+03 2.447230555065650768e-14
1.008000000000000000e+03 0.000000000000000000e+00
1.009000000000000000e+03 0.000000000000000000e+00
1.010000000000000000e+03 0.000000000000000000e+00
1.011000000000000000e+03 0.000000000000000000e+00
1.012000000000000000e+03 -1.225190427937853792e-14
1.013000000000000000e+03 -1.225503484135896810e-14
1.014000000000000000e+03 -1.225815886269622066e-14
1.015000000000000000e+03 0.000000000000000000e+00
1.016000000000000000e+03 -1.226438734951406816e-14
1.017000000000000000e+03 -1.226749184753244757e-14
1.018000000000000000e+03 3.681176961069854410e-14
1.019000000000000000e+03 -2.454736286757890705e-14
1.020000000000000000e+03 2.455353310870044619e-14
1.021000000000000000e+03 0.000000000000000000e+00
1.022000000000000000e+03 0.000000000000000000e+00
1.023000000000000000e+03 -4.914393367658026070e-14
1.024000000000000000e+03 -3.686712878603673699e-14
1.025000000000000000e+03 0.000000000000000000e+00
1.026000000000000000e+03 -3.688542862737301012e-14
1.027000000000000000e+03 2.459636669064858562e-14
1.028000000000000000e+03 2.460243500020393710e-14
1.029000000000000000e+03 1.230424535603581416e-14
1.030000000000000000e+03 -2.461453385802252109e-14
1.031000000000000000e+03 1.231028223488742533e-14
1.032000000000000000e+03 2.462658257899413119e-14
1.033000000000000000e+03 1.231629410864659518e-14
1.034000000000000000e+03 -3.695787212434816263e-14
1.035000000000000000e+03 0.000000000000000000e+00
1.036000000000000000e+03 0.000000000000000000e+00
1.037000000000000000e+03 0.000000000000000000e+00
1.038000000000000000e+03 2.466243044774179278e-14
1.039000000000000000e+03 2.466836192143492104e-14
1.040000000000000000e+03 0.000000000000000000e+00
1.041000000000000000e+03 3.702028222003404025e-14
1.042000000000000000e+03 -1.234304148028967843e-14
1.043000000000000000e+03 1.234598280838785209e-14
1.044000000000000000e+03 2.469783614631084909e-14
1.045000000000000000e+03 3.705554187024666565e-14
1.046000000000000000e+03 1.235477047463171013e-14
1.047000000000000000e+03 -1.235768764224097424e-14
1.048000000000000000e+03 2.472119761664147823e-14
1.049000000000000000e+03 1.236350398825538747e-14
1.050000000000000000e+03 1.236640319740294621e-14
1.051000000000000000e+03 0.000000000000000000e+00
1.052000000000000000e+03 -1.237218376463720832e-14
1.053000000000000000e+03 -1.237506515330831720e-14
1.054000000000000000e+03 -2.475588126472230758e-14
1.055000000000000000e+03 0.000000000000000000e+00
1.056000000000000000e+03 0.000000000000000000e+00
1.057000000000000000e+03 -1.238653176394316957e-14
1.058000000000000000e+03 2.477876751304933135e-14
1.059000000000000000e+03 0.000000000000000000e+00
1.060000000000000000e+03 0.000000000000000000e+00
1.061000000000000000e+03 -2.479580958403820045e-14
1.062000000000000000e+03 0.000000000000000000e+00
1.063000000000000000e+03 -2.480711302332981615e-14
1.064000000000000000e+03 -1.240637372346824965e-14
1.065000000000000000e+03 -2.481837037793265919e-14
1.066000000000000000e+03 -1.241199092240084984e-14
1.067000000000000000e+03 1.241479093798220400e-14
1.068000000000000000e+03 0.000000000000000000e+00
1.069000000000000000e+03 0.000000000000000000e+00
1.070000000000000000e+03 1.242315681924120286e-14
1.071000000000000000e+03 1.242593410488702368e-14
1.072000000000000000e+03 -3.728611722978436785e-14
1.073000000000000000e+03 1.243147174838670107e-14
1.074000000000000000e+03 2.486846426850724110e-14
1.075000000000000000e+03 1.243698691482166452e-14
1.076000000000000000e+03 1.243973610401887277e-14
1.077000000000000000e+03 -3.732743914722573310e-14
1.078000000000000000e+03 -1.244521776385598792e-14
1.079000000000000000e+03 0.000000000000000000e+00
1.080000000000000000e+03 0.000000000000000000e+00
1.081000000000000000e+03 3.736019599417741831e-14
1.082000000000000000e+03 1.245611459642832530e-14
1.083000000000000000e+03 1.245882503337699191e-14
1.084000000000000000e+03 1.246152998941476813e-14
1.085000000000000000e+03 -2.492845895792370290e-14
1.086000000000000000e+03 0.000000000000000000e+00
1.087000000000000000e+03 -1.246961211667855945e-14
1.088000000000000000e+03 1.247229529382522559e-14
1.089000000000000000e+03 -1.247497306243512239e-14
1.090000000000000000e+03 2.495529087385220888e-14
1.091000000000000000e+03 -2.496062486337546918e-14
1.092000000000000000e+03 -1.248297406108107258e-14
1.093000000000000000e+03 1.248563033943870027e-14
1.094000000000000000e+03 0.000000000000000000e+00
1.095000000000000000e+03 -1.249092690023434472e-14
1.096000000000000000e+03 -2.498713442238893057e-14
1.097000000000000000e+03 0.000000000000000000e+00
1.098000000000000000e+03 0.000000000000000000e+00
1.099000000000000000e+03 0.000000000000000000e+00
1.100000000000000000e+03 1.250407565686682458e-14
1.101000000000000000e+03 -1.250668963947226602e-14
1.102000000000000000e+03 -2.501859679748626366e-14
1.103000000000000000e+03 -2.502380389744774168e-14
1.104000000000000000e+03 0.000000000000000000e+00
1.105000000000000000e+03 2.503418695369468408e-14
1.106000000000000000e+03 -3.755904444880016131e-14
1.107000000000000000e+03 -1.252226433561584170e-14
1.108000000000000000e+03 3.757452614637985923e-14
1.109000000000000000e+03 0.000000000000000000e+00
1.110000000000000000e+03 -3.758994633624314227e-14
1.111000000000000000e+03 0.000000000000000000e+00
1.112000000000000000e+03 -1.253510178339888075e-14
1.113000000000000000e+03 0.000000000000000000e+00
1.114000000000000000e+03 -2.508040234575718797e-14
1.115000000000000000e+03 -1.254274329621648048e-14
1.116000000000000000e+03 -1.254528039018060826e-14
1.117000000000000000e+03 0.000000000000000000e+00
1.118000000000000000e+03 1.255033954449299477e-14
1.119000000000000000e+03 2.510572326403992694e-14
1.120000000000000000e+03 -2.511075748906119624e-14
1.121000000000000000e+03 2.511578179108035618e-14
1.122000000000000000e+03 1.256039809853433577e-14
1.123000000000000000e+03 2.512580073393805007e-14
1.124000000000000000e+03 1.256539771427046128e-14
1.125000000000000000e+03 0.000000000000000000e+00
1.126000000000000000e+03 -2.514075539805994526e-14
1.127000000000000000e+03 -1.257286036319183189e-14
1.128000000000000000e+03 2.515067631925606330e-14
1.129000000000000000e+03 -1.257781110161029995e-14
1.130000000000000000e+03 0.000000000000000000e+00
1.131000000000000000e+03 1.258274247332996033e-14
1.132000000000000000e+03 0.000000000000000000e+00
1.133000000000000000e+03 2.517530915519021271e-14
1.134000000000000000e+03 1.259010343509845554e-14
1.135000000000000000e+03 -2.518509502494903946e-14
1.136000000000000000e+03 -2.518997364380606091e-14
1.137000000000000000e+03 0.000000000000000000e+00
1.138000000000000000e+03 -5.039940474191716079e-14
1.139000000000000000e+03 1.260227626382956631e-14
1.140000000000000000e+03 -1.260469662263748200e-14
1.141000000000000000e+03 0.000000000000000000e+00
1.142000000000000000e+03 -1.260952322968736500e-14
1.143000000000000000e+03 1.261192950188208082e-14
1.144000000000000000e+03 -3.784299330731998572e-14
1.145000000000000000e+03 3.785018412977948587e-14
1.146000000000000000e+03 -1.261912033620939849e-14
1.147000000000000000e+03 1.262150799312557797e-14
1.148000000000000000e+03 1.262389102581443255e-14
1.149000000000000000e+03 -1.262626944605123690e-14
1.150000000000000000e+03 -1.262864326558052535e-14
1.151000000000000000e+03 2.526202499223235737e-14
1.152000000000000000e+03 0.000000000000000000e+00
1.153000000000000000e+03 3.790721171072733430e-14
1.154000000000000000e+03 0.000000000000000000e+00
1.155000000000000000e+03 1.264044376152986090e-14
1.156000000000000000e+03 1.264279022173615628e-14
1.157000000000000000e+03 3.793539648777380389e-14
1.158000000000000000e+03 3.794240878678805875e-14
1.159000000000000000e+03 1.264980253222103562e-14
1.160000000000000000e+03 -1.265213098390677346e-14
1.161000000000000000e+03 -1.265445496206361699e-14
1.162000000000000000e+03 -1.265677447807194659e-14
1.163000000000000000e+03 2.531817908656430655e-14
1.164000000000000000e+03 -1.266140016901473026e-14
1.165000000000000000e+03 0.000000000000000000e+00
1.166000000000000000e+03 -1.266600814717985109e-14
1.167000000000000000e+03 -3.800491656631321646e-14
1.168000000000000000e+03 0.000000000000000000e+00
1.169000000000000000e+03 0.000000000000000000e+00
1.170000000000000000e+03 0.000000000000000000e+00
1.171000000000000000e+03 0.000000000000000000e+00
1.172000000000000000e+03 2.535945340464077335e-14
1.173000000000000000e+03 -3.804599363181815687e-14
1.174000000000000000e+03 0.000000000000000000e+00
1.175000000000000000e+03 0.000000000000000000e+00
1.176000000000000000e+03 1.268878547865919685e-14
1.177000000000000000e+03 -3.807311822355809638e-14
1.178000000000000000e+03 0.000000000000000000e+00
1.179000000000000000e+03 0.000000000000000000e+00
1.180000000000000000e+03 0.000000000000000000e+00
1.181000000000000000e+03 1.270001239231203596e-14
1.182000000000000000e+03 -1.270224500952818405e-14
1.183000000000000000e+03 0.000000000000000000e+00
1.184000000000000000e+03 0.000000000000000000e+00
1.185000000000000000e+03 0.000000000000000000e+00
1.186000000000000000e+03 -1.271113328572067071e-14
1.187000000000000000e+03 -1.271334486006343460e-14
1.188000000000000000e+03 0.000000000000000000e+00
1.189000000000000000e+03 1.271775548955166532e-14
1.190000000000000000e+03 5.087981826341961541e-14
1.191000000000000000e+03 -1.272214949725570077e-14
1.192000000000000000e+03 -1.272434029426240435e-14
1.193000000000000000e+03 2.545305393471066928e-14
1.194000000000000000e+03 -1.272870952698678188e-14
1.195000000000000000e+03 2.546177596716211085e-14
1.196000000000000000e+03 5.093224939013840186e-14
1.197000000000000000e+03 -2.547046525843208764e-14
1.198000000000000000e+03 2.547479767793241621e-14
1.199000000000000000e+03 1.273956098709828215e-14
1.200000000000000000e+03 3.822515725169327829e-14
1.201000000000000000e+03 1.274387313962261956e-14
1.202000000000000000e+03 -2.549204632900665019e-14
1.203000000000000000e+03 2.549633833748575669e-14
1.204000000000000000e+03 1.275031116251694916e-14
1.205000000000000000e+03 -1.275244915597388126e-14
1.206000000000000000e+03 -2.550916631846956428e-14
1.207000000000000000e+03 0.000000000000000000e+00
1.208000000000000000e+03 1.275883923551709419e-14
1.209000000000000000e+03 1.276096132864511675e-14
1.210000000000000000e+03 -3.828923841537135709e-14
1.211000000000000000e+03 1.276519367493896464e-14
1.212000000000000000e+03 0.000000000000000000e+00
1.213000000000000000e+03 0.000000000000000000e+00
1.214000000000000000e+03 -1.277151274386025399e-14
1.215000000000000000e+03 2.554722257268889447e-14
1.216000000000000000e+03 0.000000000000000000e+00
1.217000000000000000e+03 -2.555559341946463340e-14
1.218000000000000000e+03 2.555976722052215463e-14
1.219000000000000000e+03 5.112786659887650241e-14
1.220000000000000000e+03 0.000000000000000000e+00
1.221000000000000000e+03 -2.557224236876655005e-14
1.222000000000000000e+03 0.000000000000000000e+00
1.223000000000000000e+03 -2.558052078276592387e-14
1.224000000000000000e+03 -1.279232427116245872e-14
1.225000000000000000e+03 -1.279438434795837695e-14
1.226000000000000000e+03 1.279644063136074878e-14
1.227000000000000000e+03 2.559698626186755810e-14
1.228000000000000000e+03 -1.280054185621584370e-14
1.229000000000000000e+03 1.280258681671958919e-14
1.230000000000000000e+03 0.000000000000000000e+00
1.231000000000000000e+03 -1.280666548131447293e-14
1.232000000000000000e+03 2.561739840860564614e-14
1.233000000000000000e+03 -2.562145840061489016e-14
1.234000000000000000e+03 1.281275547871327516e-14
1.235000000000000000e+03 -2.562955609775992356e-14
1.236000000000000000e+03 -2.563359384028365878e-14
1.237000000000000000e+03 2.563762420361601247e-14
1.238000000000000000e+03 3.846247080948748283e-14
1.239000000000000000e+03 0.000000000000000000e+00
1.240000000000000000e+03 -1.282483560194701083e-14
1.241000000000000000e+03 -1.282683611781985578e-14
1.242000000000000000e+03 2.565766598053356836e-14
1.243000000000000000e+03 1.283082622844704859e-14
1.244000000000000000e+03 2.566563168299022794e-14
1.245000000000000000e+03 -2.566960367704155523e-14
1.246000000000000000e+03 0.000000000000000000e+00
1.247000000000000000e+03 0.000000000000000000e+00
1.248000000000000000e+03 1.284073822419213465e-14
1.249000000000000000e+03 2.568541969546892498e-14
1.250000000000000000e+03 1.284467790043521839e-14
1.251000000000000000e+03 1.284664239125738945e-14
1.252000000000000000e+03 0.000000000000000000e+00
1.253000000000000000e+03 -1.285056072299690326e-14
1.254000000000000000e+03 0.000000000000000000e+00
1.255000000000000000e+03 -3.856339474252020194e-14
1.256000000000000000e+03 0.000000000000000000e+00
1.257000000000000000e+03 -3.857506510686772836e-14
1.258000000000000000e+03 -1.286029484223087072e-14
1.259000000000000000e+03 -2.572446231559487556e-14
1.260000000000000000e+03 1.286416399106944733e-14
1.261000000000000000e+03 1.286609335077039936e-14
1.262000000000000000e+03 -2.573603849120046118e-14
1.263000000000000000e+03 1.286994168423530972e-14
1.264000000000000000e+03 -1.287186067532855263e-14
1.265000000000000000e+03 -1.287377622750946338e-14
1.266000000000000000e+03 1.287568834938421151e-14
1.267000000000000000e+03 2.575519409907137461e-14
1.268000000000000000e+03 -1.287950233652357116e-14
1.269000000000000000e+03 1.288140421888435569e-14
1.270000000000000000e+03 2.576660541026297867e-14
1.271000000000000000e+03 -3.865559341126613363e-14
1.272000000000000000e+03 -1.288708952322344286e-14
1.273000000000000000e+03 -1.288897787198026199e-14
1.274000000000000000e+03 2.578172571689498997e-14
1.275000000000000000e+03 1.289274449102412024e-14
1.276000000000000000e+03 1.289462277808631650e-14
1.277000000000000000e+03 -1.289649772798768213e-14
1.278000000000000000e+03 0.000000000000000000e+00
1.279000000000000000e+03 -1.290023764960926653e-14
1.280000000000000000e+03 -1.290210263792395384e-14
1.281000000000000000e+03 0.000000000000000000e+00
1.282000000000000000e+03 -2.581164542175829492e-14
1.283000000000000000e+03 0.000000000000000000e+00
1.284000000000000000e+03 2.581905926753169016e-14
1.285000000000000000e+03 -2.582275636882321025e-14
1.286000000000000000e+03 0.000000000000000000e+00
1.287000000000000000e+03 -1.291506550487064048e-14
1.288000000000000000e+03 -1.291690429092293938e-14
1.289000000000000000e+03 1.291873983831324005e-14
1.290000000000000000e+03 -1.292057215510629629e-14
1.291000000000000000e+03 -1.292240124934510984e-14
1.292000000000000000e+03 0.000000000000000000e+00
1.293000000000000000e+03 -2.585209960444693102e-14
1.294000000000000000e+03 -1.292786927684061376e-14
1.295000000000000000e+03 -3.878905668257665070e-14
1.296000000000000000e+03 -1.293149866221326744e-14
1.297000000000000000e+03 2.586661717763465536e-14
1.298000000000000000e+03 -2.587023069712659051e-14
1.299000000000000000e+03 0.000000000000000000e+00
1.300000000000000000e+03 -1.293871939894331436e-14
1.301000000000000000e+03 2.588103341051108502e-14
1.302000000000000000e+03 0.000000000000000000e+00
1.303000000000000000e+03 -2.588820383832287440e-14
1.304000000000000000e+03 -1.294588984230672814e-14
1.305000000000000000e+03 -1.294767465324641188e-14
1.306000000000000000e+03 0.000000000000000000e+00
1.307000000000000000e+03 1.295123496938214473e-14
1.308000000000000000e+03 1.295301048996280850e-14
1.309000000000000000e+03 -2.590956585821440647e-14
1.310000000000000000e+03 0.000000000000000000e+00
1.311000000000000000e+03 -2.591663718725785276e-14
1.312000000000000000e+03 0.000000000000000000e+00
1.313000000000000000e+03 0.000000000000000000e+00
1.314000000000000000e+03 0.000000000000000000e+00
1.315000000000000000e+03 -1.296535328024681342e-14
1.316000000000000000e+03 -3.890131308637495584e-14
1.317000000000000000e+03 0.000000000000000000e+00
1.318000000000000000e+03 0.000000000000000000e+00
1.319000000000000000e+03 1.297233951234147384e-14
1.320000000000000000e+03 -2.594815711093162708e-14
1.321000000000000000e+03 1.297581460749519434e-14
1.322000000000000000e+03 1.297754767582706154e-14
1.323000000000000000e+03 2.595855553567793082e-14
1.324000000000000000e+03 -1.298100489088862264e-14
1.325000000000000000e+03 -2.596545810462795272e-14
1.326000000000000000e+03 2.596890051886648685e-14
1.327000000000000000e+03 -1.298616851954502174e-14
1.328000000000000000e+03 0.000000000000000000e+00
1.329000000000000000e+03 -5.195838491136972988e-14
1.330000000000000000e+03 -2.598261138105488386e-14
1.331000000000000000e+03 1.299301223520381452e-14
1.332000000000000000e+03 -1.299471586907269225e-14
1.333000000000000000e+03 0.000000000000000000e+00
1.334000000000000000e+03 0.000000000000000000e+00
1.335000000000000000e+03 -1.299980937755629295e-14
1.336000000000000000e+03 0.000000000000000000e+00
1.337000000000000000e+03 2.600638125399069678e-14
1.338000000000000000e+03 0.000000000000000000e+00
1.339000000000000000e+03 -1.300656040439789679e-14
1.340000000000000000e+03 1.300824100874137790e-14
1.341000000000000000e+03 -1.300991876622501502e-14
1.342000000000000000e+03 -2.602318736771853342e-14
1.343000000000000000e+03 -1.301326576863583084e-14
1.344000000000000000e+03 1.301493502752771084e-14
1.345000000000000000e+03 -2.603320293497851985e-14
1.346000000000000000e+03 -3.905479528636864089e-14
1.347000000000000000e+03 1.301992591834576034e-14
1.348000000000000000e+03 3.906475182916990776e-14
1.349000000000000000e+03 2.604647835293819909e-14
1.350000000000000000e+03 0.000000000000000000e+00
1.351000000000000000e+03 -2.605308259365612303e-14
1.352000000000000000e+03 2.605637639488680304e-14
1.353000000000000000e+03 -3.908949700229448990e-14
1.354000000000000000e+03 0.000000000000000000e+00
1.355000000000000000e+03 -2.606622468532683150e-14
1.356000000000000000e+03 -2.606949645619486823e-14
1.357000000000000000e+03 -2.607276275323603914e-14
1.358000000000000000e+03 -1.303801179494191568e-14
1.359000000000000000e+03 0.000000000000000000e+00
1.360000000000000000e+03 0.000000000000000000e+00
1.361000000000000000e+03 1.304288673563308672e-14
1.362000000000000000e+03 1.304450629998075348e-14
1.363000000000000000e+03 -1.304612316758794349e-14
1.364000000000000000e+03 -1.304773734623740699e-14
1.365000000000000000e+03 1.304934884415558745e-14
1.366000000000000000e+03 2.610191533910279969e-14
1.367000000000000000e+03 -2.610512766122816361e-14
1.368000000000000000e+03 0.000000000000000000e+00
1.369000000000000000e+03 -1.305576819239846992e-14
1.370000000000000000e+03 2.611473281880071540e-14
1.371000000000000000e+03 0.000000000000000000e+00
1.372000000000000000e+03 0.000000000000000000e+00
1.373000000000000000e+03 0.000000000000000000e+00
1.374000000000000000e+03 0.000000000000000000e+00
1.375000000000000000e+03 -1.306531817934721149e-14
1.376000000000000000e+03 1.306690072668846374e-14
1.377000000000000000e+03 -1.306848069051089983e-14
1.378000000000000000e+03 1.307005807878872811e-14
1.379000000000000000e+03 -2.614326579895362184e-14
1.380000000000000000e+03 0.000000000000000000e+00
1.381000000000000000e+03 0.000000000000000000e+00
1.382000000000000000e+03 -2.615268407052133495e-14
1.383000000000000000e+03 1.307790666475134488e-14
1.384000000000000000e+03 -1.307946876613662524e-14
1.385000000000000000e+03 2.616205669451123634e-14
1.386000000000000000e+03 -1.308258541592824818e-14
1.387000000000000000e+03 0.000000000000000000e+00
1.388000000000000000e+03 2.617138409423646285e-14
1.389000000000000000e+03 0.000000000000000000e+00
1.390000000000000000e+03 -1.308878872188315423e-14
1.391000000000000000e+03 1.309033334495289558e-14
1.392000000000000000e+03 0.000000000000000000e+00
1.393000000000000000e+03 -1.309341520099383670e-14
1.394000000000000000e+03 1.309495244931883663e-14
1.395000000000000000e+03 1.309648725471781937e-14
1.396000000000000000e+03 0.000000000000000000e+00
1.397000000000000000e+03 0.000000000000000000e+00
1.398000000000000000e+03 -1.310107707951802099e-14
1.399000000000000000e+03 0.000000000000000000e+00
1.400000000000000000e+03 -1.310412485659535792e-14
1.401000000000000000e+03 0.000000000000000000e+00
1.402000000000000000e+03 -1.310716299720971854e-14
1.403000000000000000e+03 0.000000000000000000e+00
1.404000000000000000e+03 -1.311019154260787699e-14
1.405000000000000000e+03 -1.311170222992561834e-14
1.406000000000000000e+03 -1.311321053379954840e-14
1.407000000000000000e+03 -2.622943291863826848e-14
1.408000000000000000e+03 2.623244002311861164e-14
1.409000000000000000e+03 1.311772119558048436e-14
1.410000000000000000e+03 -2.623844003285719940e-14
1.411000000000000000e+03 0.000000000000000000e+00
1.412000000000000000e+03 -1.312221058871754073e-14
1.413000000000000000e+03 0.000000000000000000e+00
1.414000000000000000e+03 1.312519176850688458e-14
1.415000000000000000e+03 1.312667884867718750e-14
1.416000000000000000e+03 0.000000000000000000e+00
1.417000000000000000e+03 0.000000000000000000e+00
1.418000000000000000e+03 -2.626225221954817037e-14
1.419000000000000000e+03 1.313260388677651529e-14
1.420000000000000000e+03 0.000000000000000000e+00
1.421000000000000000e+03 -1.313555250518515805e-14
1.422000000000000000e+03 3.941107006907752268e-14
1.423000000000000000e+03 1.313849190866868036e-14
1.424000000000000000e+03 0.000000000000000000e+00
1.425000000000000000e+03 0.000000000000000000e+00
1.426000000000000000e+03 -3.942865146251646824e-14
1.427000000000000000e+03 2.628868645210248062e-14
1.428000000000000000e+03 0.000000000000000000e+00
1.429000000000000000e+03 0.000000000000000000e+00
1.430000000000000000e+03 1.314870781229463725e-14
1.431000000000000000e+03 0.000000000000000000e+00
1.432000000000000000e+03 1.315160622628478130e-14
1.433000000000000000e+03 -1.315305205445555013e-14
1.434000000000000000e+03 0.000000000000000000e+00
1.435000000000000000e+03 1.315593697672926466e-14
1.436000000000000000e+03 1.315737608022537908e-14
1.437000000000000000e+03 -1.315881295153482197e-14
1.438000000000000000e+03 0.000000000000000000e+00
1.439000000000000000e+03 0.000000000000000000e+00
1.440000000000000000e+03 0.000000000000000000e+00
1.441000000000000000e+03 0.000000000000000000e+00
1.442000000000000000e+03 1.316596398808091750e-14
1.443000000000000000e+03 0.000000000000000000e+00
1.444000000000000000e+03 0.000000000000000000e+00
1.445000000000000000e+03 0.000000000000000000e+00
1.446000000000000000e+03 -1.317164511029854861e-14
1.447000000000000000e+03 -1.317305991416974868e-14
1.448000000000000000e+03 1.317447253646222864e-14
1.449000000000000000e+03 -1.317588298170166773e-14
1.450000000000000000e+03 -1.317729125440137898e-14
1.451000000000000000e+03 -1.317869735906243549e-14
1.452000000000000000e+03 2.636020260034740388e-14
1.453000000000000000e+03 0.000000000000000000e+00
1.454000000000000000e+03 -1.318290270964168518e-14
1.455000000000000000e+03 3.955290056074665462e-14
1.456000000000000000e+03 2.637139103694807797e-14
1.457000000000000000e+03 1.318708870874573217e-14
1.458000000000000000e+03 -1.318847976214727083e-14
1.459000000000000000e+03 1.318986868308341602e-14
1.460000000000000000e+03 0.000000000000000000e+00
1.461000000000000000e+03 0.000000000000000000e+00
1.462000000000000000e+03 0.000000000000000000e+00
1.463000000000000000e+03 3.958620938957014111e-14
1.464000000000000000e+03 1.319678145412523645e-14
1.465000000000000000e+03 3.959447301633080371e-14
1.466000000000000000e+03 2.639906357626954740e-14
1.467000000000000000e+03 -1.320090380651018950e-14
1.468000000000000000e+03 1.320227373153647146e-14
1.469000000000000000e+03 0.000000000000000000e+00
1.470000000000000000e+03 0.000000000000000000e+00
1.471000000000000000e+03 2.641274198013872569e-14
1.472000000000000000e+03 0.000000000000000000e+00
1.473000000000000000e+03 0.000000000000000000e+00
1.474000000000000000e+03 0.000000000000000000e+00
1.475000000000000000e+03 -1.321180498718018960e-14
1.476000000000000000e+03 0.000000000000000000e+00
1.477000000000000000e+03 3.964352894903522241e-14
1.478000000000000000e+03 -1.321585891605204812e-14
1.479000000000000000e+03 2.643441229286053578e-14
1.480000000000000000e+03 2.643710269247482222e-14
1.481000000000000000e+03 0.000000000000000000e+00
1.482000000000000000e+03 -2.644247135153742411e-14
1.483000000000000000e+03 0.000000000000000000e+00
1.484000000000000000e+03 3.967173584331784127e-14
1.485000000000000000e+03 1.322524707562053280e-14
1.486000000000000000e+03 0.000000000000000000e+00
1.487000000000000000e+03 0.000000000000000000e+00
1.488000000000000000e+03 -1.322924049063958031e-14
1.489000000000000000e+03 1.323056765719712945e-14
1.490000000000000000e+03 -1.323189284669374433e-14
1.491000000000000000e+03 -2.646643212881571155e-14
1.492000000000000000e+03 -2.646907463120961481e-14
1.493000000000000000e+03 -1.323585660553692190e-14
1.494000000000000000e+03 -2.647434787888697992e-14
1.495000000000000000e+03 2.647697864510171416e-14
1.496000000000000000e+03 -2.647960552014486601e-14
1.497000000000000000e+03 -1.324111425720870752e-14
1.498000000000000000e+03 1.324242381914729937e-14
1.499000000000000000e+03 1.324373145106298462e-14
1.500000000000000000e+03 1.324503715811774877e-14
